Run 	T Sent 	T Received 	Message ID 	dT
1 	1424743477.61 	1424743477.62 	3 	0.00428199768066
2 	1424743477.63 	1424743477.64 	7 	0.00442886352539
3 	1424743477.65 	1424743477.65 	3 	0.00422310829163
4 	1424743477.66 	1424743477.67 	1 	0.0043351650238
5 	1424743477.68 	1424743477.69 	8 	0.0077178478241
6 	1424743477.7 	1424743477.7 	9 	0.00478792190552
7 	1424743477.72 	1424743477.72 	7 	0.00473189353943
8 	1424743477.73 	1424743477.74 	2 	0.00424098968506
9 	1424743477.75 	1424743477.75 	5 	0.00413489341736
10 	1424743477.76 	1424743477.77 	7 	0.00410413742065
11 	1424743477.78 	1424743477.78 	5 	0.00464487075806
12 	1424743477.8 	1424743477.8 	3 	0.00471782684326
13 	1424743477.81 	1424743477.82 	5 	0.00516796112061
14 	1424743477.83 	1424743477.83 	9 	0.00424408912659
15 	1424743477.85 	1424743477.85 	2 	0.00430703163147
16 	1424743477.86 	1424743477.87 	3 	0.00410103797913
17 	1424743477.88 	1424743477.88 	7 	0.00473213195801
18 	1424743477.9 	1424743477.9 	6 	0.00480198860168
19 	1424743477.91 	1424743477.92 	8 	0.00456500053406
20 	1424743477.93 	1424743477.94 	0 	0.00442695617676
21 	1424743477.95 	1424743477.95 	2 	0.00425791740417
22 	1424743477.96 	1424743477.97 	8 	0.00500917434692
23 	1424743477.98 	1424743477.98 	6 	0.00419592857361
24 	1424743478.0 	1424743478.0 	2 	0.00503206253052
25 	1424743478.01 	1424743478.02 	5 	0.0042290687561
26 	1424743478.03 	1424743478.03 	0 	0.00505399703979
27 	1424743478.05 	1424743478.05 	1 	0.00471806526184
28 	1424743478.06 	1424743478.07 	8 	0.0047619342804
29 	1424743478.08 	1424743478.09 	4 	0.00442099571228
30 	1424743478.1 	1424743478.1 	2 	0.0055980682373
31 	1424743478.11 	1424743478.12 	1 	0.0042200088501
32 	1424743478.13 	1424743478.13 	4 	0.00494694709778
33 	1424743478.15 	1424743478.15 	2 	0.00493097305298
34 	1424743478.16 	1424743478.17 	6 	0.0049901008606
35 	1424743478.18 	1424743478.18 	4 	0.00411009788513
36 	1424743478.2 	1424743478.2 	1 	0.00636982917786
37 	1424743478.21 	1424743478.22 	6 	0.00467610359192
38 	1424743478.23 	1424743478.23 	1 	0.0049409866333
39 	1424743478.25 	1424743478.25 	4 	0.00436401367188
40 	1424743478.26 	1424743478.26 	7 	0.00435495376587
41 	1424743478.28 	1424743478.28 	9 	0.00449109077454
42 	1424743478.29 	1424743478.31 	5 	0.0134439468384
43 	1424743478.32 	1424743478.32 	4 	0.00636100769043
44 	1424743478.34 	1424743478.34 	8 	0.00454497337341
45 	1424743478.35 	1424743478.37 	9 	0.0151810646057
46 	1424743478.38 	1424743478.38 	1 	0.00422286987305
47 	1424743478.39 	1424743478.4 	5 	0.00460004806519
48 	1424743478.41 	1424743478.41 	0 	0.00401711463928
49 	1424743478.42 	1424743478.43 	3 	0.00492787361145
50 	1424743478.44 	1424743478.44 	6 	0.00426506996155
51 	1424743478.46 	1424743478.46 	1 	0.00506997108459
52 	1424743478.47 	1424743478.48 	3 	0.0041868686676
53 	1424743478.49 	1424743478.49 	6 	0.00450897216797
54 	1424743478.51 	1424743478.51 	1 	0.00419306755066
55 	1424743478.52 	1424743478.53 	5 	0.00476503372192
56 	1424743478.54 	1424743478.54 	3 	0.0042359828949
57 	1424743478.55 	1424743478.56 	1 	0.01092004776
58 	1424743478.58 	1424743478.58 	8 	0.0047721862793
59 	1424743478.59 	1424743478.6 	5 	0.00467395782471
60 	1424743478.61 	1424743478.61 	4 	0.00512886047363
61 	1424743478.63 	1424743478.63 	3 	0.00402808189392
62 	1424743478.64 	1424743478.65 	6 	0.00547480583191
63 	1424743478.66 	1424743478.66 	8 	0.00438499450684
64 	1424743478.67 	1424743478.68 	5 	0.00494599342346
65 	1424743478.69 	1424743478.69 	7 	0.00430703163147
66 	1424743478.71 	1424743478.71 	0 	0.00498795509338
67 	1424743478.72 	1424743478.73 	3 	0.00435590744019
68 	1424743478.74 	1424743478.74 	5 	0.0045018196106
69 	1424743478.76 	1424743478.76 	4 	0.0044469833374
70 	1424743478.77 	1424743478.78 	8 	0.00556206703186
71 	1424743478.79 	1424743478.79 	1 	0.00430703163147
72 	1424743478.8 	1424743478.81 	6 	0.0057590007782
73 	1424743478.82 	1424743478.83 	1 	0.00446105003357
74 	1424743478.84 	1424743478.84 	2 	0.00525498390198
75 	1424743478.85 	1424743478.86 	7 	0.00454187393188
76 	1424743478.87 	1424743478.88 	9 	0.007563829422
77 	1424743478.89 	1424743478.89 	6 	0.00417995452881
78 	1424743478.91 	1424743478.94 	3 	0.0304598808289
79 	1424743478.95 	1424743478.95 	6 	0.00425910949707
80 	1424743478.96 	1424743478.97 	2 	0.00389719009399
81 	1424743478.98 	1424743478.98 	0 	0.00423908233643
82 	1424743478.99 	1424743479.0 	4 	0.00426387786865
83 	1424743479.01 	1424743479.01 	5 	0.00487899780273
84 	1424743479.03 	1424743479.03 	6 	0.00433993339539
85 	1424743479.04 	1424743479.05 	9 	0.00460290908813
86 	1424743479.06 	1424743479.06 	4 	0.0042290687561
87 	1424743479.08 	1424743479.08 	2 	0.00449299812317
88 	1424743479.09 	1424743479.09 	7 	0.00422096252441
89 	1424743479.11 	1424743479.11 	2 	0.00478196144104
90 	1424743479.12 	1424743479.13 	7 	0.0045428276062
91 	1424743479.14 	1424743479.14 	2 	0.00463700294495
92 	1424743479.16 	1424743479.16 	6 	0.00578689575195
93 	1424743479.17 	1424743479.18 	0 	0.00416088104248
94 	1424743479.19 	1424743479.19 	9 	0.00409197807312
95 	1424743479.2 	1424743479.21 	6 	0.00513696670532
96 	1424743479.22 	1424743479.22 	7 	0.00397992134094
97 	1424743479.23 	1424743479.24 	2 	0.0044960975647
98 	1424743479.25 	1424743479.25 	0 	0.0041139125824
99 	1424743479.26 	1424743479.27 	4 	0.00517916679382
100 	1424743479.28 	1424743479.28 	9 	0.00406718254089
101 	1424743479.3 	1424743479.3 	3 	0.00539302825928
102 	1424743479.31 	1424743479.32 	9 	0.0041332244873
103 	1424743479.33 	1424743479.33 	6 	0.00534701347351
104 	1424743479.35 	1424743479.35 	9 	0.00429487228394
105 	1424743479.36 	1424743479.36 	1 	0.00390195846558
106 	1424743479.38 	1424743479.38 	3 	0.00424909591675
107 	1424743479.39 	1424743479.39 	1 	0.004065990448
108 	1424743479.41 	1424743479.41 	4 	0.00429797172546
109 	1424743479.42 	1424743479.43 	7 	0.00488495826721
110 	1424743479.44 	1424743479.44 	4 	0.0040431022644
111 	1424743479.45 	1424743479.46 	7 	0.0049262046814
112 	1424743479.47 	1424743479.47 	4 	0.00379014015198
113 	1424743479.48 	1424743479.49 	7 	0.00455498695374
114 	1424743479.5 	1424743479.5 	8 	0.00394988059998
115 	1424743479.52 	1424743479.52 	7 	0.00427508354187
116 	1424743479.53 	1424743479.53 	9 	0.0040500164032
117 	1424743479.55 	1424743479.55 	7 	0.00444197654724
118 	1424743479.56 	1424743479.56 	8 	0.00427103042603
119 	1424743479.58 	1424743479.58 	2 	0.00388479232788
120 	1424743479.59 	1424743479.59 	3 	0.00393295288086
121 	1424743479.61 	1424743479.61 	1 	0.00398778915405
122 	1424743479.62 	1424743479.62 	7 	0.0039210319519
123 	1424743479.64 	1424743479.64 	2 	0.00383901596069
124 	1424743479.65 	1424743479.65 	9 	0.00417399406433
125 	1424743479.67 	1424743479.67 	4 	0.00385999679565
126 	1424743479.68 	1424743479.68 	9 	0.00400114059448
127 	1424743479.7 	1424743479.7 	0 	0.00488090515137
128 	1424743479.71 	1424743479.72 	6 	0.00486493110657
129 	1424743479.73 	1424743479.73 	0 	0.00426316261292
130 	1424743479.75 	1424743479.75 	7 	0.00384092330933
131 	1424743479.76 	1424743479.76 	6 	0.00434398651123
132 	1424743479.78 	1424743479.78 	8 	0.00402593612671
133 	1424743479.79 	1424743479.8 	0 	0.00509786605835
134 	1424743479.81 	1424743479.81 	3 	0.00399088859558
135 	1424743479.82 	1424743479.83 	4 	0.00402116775513
136 	1424743479.84 	1424743479.84 	2 	0.00383400917053
137 	1424743479.85 	1424743479.86 	8 	0.00396800041199
138 	1424743479.87 	1424743479.87 	9 	0.00398421287537
139 	1424743479.88 	1424743479.89 	0 	0.00401210784912
140 	1424743479.9 	1424743479.95 	1 	0.0542550086975
141 	1424743479.97 	1424743479.97 	0 	0.00396108627319
142 	1424743479.98 	1424743479.98 	9 	0.00439715385437
143 	1424743480.0 	1424743480.0 	7 	0.00391793251038
144 	1424743480.01 	1424743480.02 	1 	0.00544095039368
145 	1424743480.03 	1424743480.03 	6 	0.00457096099854
146 	1424743480.05 	1424743480.05 	0 	0.00415182113647
147 	1424743480.06 	1424743480.06 	6 	0.00407385826111
148 	1424743480.08 	1424743480.08 	9 	0.00433421134949
149 	1424743480.09 	1424743480.09 	4 	0.00412702560425
150 	1424743480.11 	1424743480.11 	7 	0.00488901138306
151 	1424743480.12 	1424743480.13 	3 	0.00403094291687
152 	1424743480.14 	1424743480.14 	2 	0.0046980381012
153 	1424743480.16 	1424743480.16 	5 	0.0041139125824
154 	1424743480.17 	1424743480.18 	6 	0.00476598739624
155 	1424743480.19 	1424743480.19 	2 	0.00430607795715
156 	1424743480.2 	1424743480.21 	5 	0.0039279460907
157 	1424743480.22 	1424743480.22 	4 	0.00412201881409
158 	1424743480.23 	1424743480.24 	2 	0.0039689540863
159 	1424743480.25 	1424743480.25 	8 	0.00399899482727
160 	1424743480.26 	1424743480.27 	9 	0.00398898124695
161 	1424743480.28 	1424743480.28 	0 	0.00391292572021
162 	1424743480.29 	1424743480.3 	5 	0.0040168762207
163 	1424743480.31 	1424743480.31 	9 	0.0040168762207
164 	1424743480.32 	1424743480.33 	2 	0.00401306152344
165 	1424743480.34 	1424743480.34 	6 	0.00399708747864
166 	1424743480.35 	1424743480.36 	5 	0.00406694412231
167 	1424743480.37 	1424743480.37 	4 	0.00399899482727
168 	1424743480.38 	1424743480.39 	3 	0.00390195846558
169 	1424743480.4 	1424743480.4 	2 	0.00410294532776
170 	1424743480.41 	1424743480.42 	5 	0.00395894050598
171 	1424743480.43 	1424743480.43 	6 	0.00406718254089
172 	1424743480.44 	1424743480.45 	8 	0.00397515296936
173 	1424743480.46 	1424743480.46 	5 	0.00461387634277
174 	1424743480.47 	1424743480.48 	0 	0.00405788421631
175 	1424743480.49 	1424743480.49 	9 	0.00382781028748
176 	1424743480.5 	1424743480.51 	6 	0.00397801399231
177 	1424743480.52 	1424743480.52 	2 	0.00416588783264
178 	1424743480.53 	1424743480.54 	9 	0.00396203994751
179 	1424743480.55 	1424743480.55 	0 	0.00601983070374
180 	1424743480.57 	1424743480.57 	7 	0.00444197654724
181 	1424743480.58 	1424743480.58 	2 	0.00419402122498
182 	1424743480.6 	1424743480.6 	9 	0.00402688980103
183 	1424743480.61 	1424743480.62 	7 	0.00453281402588
184 	1424743480.63 	1424743480.63 	1 	0.00403714179993
185 	1424743480.64 	1424743480.65 	5 	0.00482296943665
186 	1424743480.66 	1424743480.66 	3 	0.00404787063599
187 	1424743480.67 	1424743480.68 	8 	0.00401902198792
188 	1424743480.69 	1424743480.69 	4 	0.00395798683167
189 	1424743480.7 	1424743480.71 	5 	0.00488114356995
190 	1424743480.74 	1424743480.76 	9 	0.0204911231995
191 	1424743480.77 	1424743480.77 	2 	0.00391912460327
192 	1424743480.79 	1424743480.79 	8 	0.00423812866211
193 	1424743480.8 	1424743480.81 	1 	0.00447010993958
194 	1424743480.82 	1424743480.82 	7 	0.00474500656128
195 	1424743480.83 	1424743480.84 	2 	0.00426888465881
196 	1424743480.85 	1424743480.85 	7 	0.00436592102051
197 	1424743480.86 	1424743480.87 	2 	0.00452995300293
198 	1424743480.88 	1424743480.88 	5 	0.00496006011963
199 	1424743480.89 	1424743480.9 	2 	0.00425481796265
200 	1424743480.91 	1424743480.92 	5 	0.00425696372986
201 	1424743480.93 	1424743480.93 	1 	0.00564885139465
202 	1424743480.94 	1424743480.95 	4 	0.00449514389038
203 	1424743480.96 	1424743480.96 	8 	0.00438499450684
204 	1424743480.97 	1424743480.98 	2 	0.0045919418335
205 	1424743480.99 	1424743480.99 	9 	0.00557494163513
206 	1424743481.01 	1424743481.01 	3 	0.00455117225647
207 	1424743481.02 	1424743481.03 	7 	0.00511598587036
208 	1424743481.04 	1424743481.04 	3 	0.00448513031006
209 	1424743481.06 	1424743481.07 	7 	0.00758910179138
210 	1424743481.08 	1424743481.08 	5 	0.00478219985962
211 	1424743481.1 	1424743481.1 	0 	0.0049250125885
212 	1424743481.11 	1424743481.12 	1 	0.00522589683533
213 	1424743481.13 	1424743481.14 	7 	0.00466918945312
214 	1424743481.15 	1424743481.15 	9 	0.00625419616699
215 	1424743481.17 	1424743481.17 	3 	0.00493097305298
216 	1424743481.18 	1424743481.19 	9 	0.0050220489502
217 	1424743481.2 	1424743481.21 	0 	0.00660490989685
218 	1424743481.22 	1424743481.24 	5 	0.0183300971985
219 	1424743481.25 	1424743481.25 	3 	0.00651407241821
220 	1424743481.27 	1424743481.27 	0 	0.00455498695374
221 	1424743481.28 	1424743481.29 	2 	0.00486898422241
222 	1424743481.3 	1424743481.31 	0 	0.00467014312744
223 	1424743481.32 	1424743481.33 	1 	0.0131759643555
224 	1424743481.34 	1424743481.35 	5 	0.00628900527954
225 	1424743481.36 	1424743481.36 	4 	0.00436902046204
226 	1424743481.38 	1424743481.39 	5 	0.0174379348755
227 	1424743481.41 	1424743481.42 	6 	0.0175290107727
228 	1424743481.44 	1424743481.48 	7 	0.0426208972931
229 	1424743481.49 	1424743481.49 	8 	0.0040111541748
230 	1424743481.51 	1424743481.51 	5 	0.0039598941803
231 	1424743481.52 	1424743481.52 	9 	0.00395894050598
232 	1424743481.54 	1424743481.54 	7 	0.0050950050354
233 	1424743481.55 	1424743481.56 	4 	0.00417304039001
234 	1424743481.57 	1424743481.57 	7 	0.00431299209595
235 	1424743481.58 	1424743481.58 	3 	0.0041880607605
236 	1424743481.6 	1424743481.6 	0 	0.00415182113647
237 	1424743481.61 	1424743481.61 	3 	0.00390195846558
238 	1424743481.63 	1424743481.63 	0 	0.00403714179993
239 	1424743481.64 	1424743481.65 	2 	0.00503706932068
240 	1424743481.66 	1424743481.66 	9 	0.00383615493774
241 	1424743481.67 	1424743481.68 	3 	0.0038788318634
242 	1424743481.69 	1424743481.69 	6 	0.00403094291687
243 	1424743481.7 	1424743481.71 	2 	0.00419116020203
244 	1424743481.72 	1424743481.72 	9 	0.00474095344543
245 	1424743481.74 	1424743481.74 	0 	0.00399994850159
246 	1424743481.75 	1424743481.76 	5 	0.0043408870697
247 	1424743481.77 	1424743481.77 	4 	0.00676107406616
248 	1424743481.78 	1424743481.79 	1 	0.00419998168945
249 	1424743481.8 	1424743481.8 	2 	0.00408601760864
250 	1424743481.81 	1424743481.82 	8 	0.0041811466217
251 	1424743481.83 	1424743481.83 	5 	0.00418710708618
252 	1424743481.84 	1424743481.85 	1 	0.00412082672119
253 	1424743481.86 	1424743481.87 	9 	0.00498986244202
254 	1424743481.88 	1424743481.88 	5 	0.00453305244446
255 	1424743481.89 	1424743481.93 	2 	0.0346491336823
256 	1424743481.94 	1424743481.94 	1 	0.00421190261841
257 	1424743481.95 	1424743481.96 	9 	0.00398278236389
258 	1424743481.97 	1424743481.97 	6 	0.00378179550171
259 	1424743481.98 	1424743481.99 	4 	0.00391411781311
260 	1424743482.0 	1424743482.0 	1 	0.00404596328735
261 	1424743482.01 	1424743482.02 	3 	0.00394105911255
262 	1424743482.03 	1424743482.03 	6 	0.00387692451477
263 	1424743482.04 	1424743482.05 	7 	0.00398206710815
264 	1424743482.06 	1424743482.06 	5 	0.00402593612671
265 	1424743482.07 	1424743482.08 	8 	0.0038628578186
266 	1424743482.09 	1424743482.09 	2 	0.00513195991516
267 	1424743482.11 	1424743482.11 	8 	0.00403118133545
268 	1424743482.12 	1424743482.13 	4 	0.00515699386597
269 	1424743482.14 	1424743482.14 	3 	0.00498795509338
270 	1424743482.16 	1424743482.16 	9 	0.0044801235199
271 	1424743482.17 	1424743482.18 	0 	0.00403809547424
272 	1424743482.19 	1424743482.19 	1 	0.00505113601685
273 	1424743482.2 	1424743482.21 	2 	0.00390195846558
274 	1424743482.22 	1424743482.22 	1 	0.00417304039001
275 	1424743482.23 	1424743482.24 	0 	0.00403499603271
276 	1424743482.25 	1424743482.25 	1 	0.00420594215393
277 	1424743482.26 	1424743482.27 	0 	0.00628709793091
278 	1424743482.28 	1424743482.29 	7 	0.00492310523987
279 	1424743482.3 	1424743482.3 	5 	0.00508093833923
280 	1424743482.32 	1424743482.32 	7 	0.00405406951904
281 	1424743482.33 	1424743482.33 	8 	0.00431680679321
282 	1424743482.35 	1424743482.35 	3 	0.0041389465332
283 	1424743482.36 	1424743482.36 	5 	0.0037989616394
284 	1424743482.38 	1424743482.38 	4 	0.00399899482727
285 	1424743482.39 	1424743482.4 	2 	0.00461602210999
286 	1424743482.41 	1424743482.41 	9 	0.00386905670166
287 	1424743482.42 	1424743482.43 	2 	0.00379395484924
288 	1424743482.44 	1424743482.44 	6 	0.004802942276
289 	1424743482.45 	1424743482.46 	1 	0.00384879112244
290 	1424743482.47 	1424743482.47 	6 	0.00536394119263
291 	1424743482.48 	1424743482.49 	9 	0.00454092025757
292 	1424743482.5 	1424743482.51 	6 	0.00488591194153
293 	1424743482.52 	1424743482.52 	5 	0.00636506080627
294 	1424743482.54 	1424743482.54 	7 	0.00525307655334
295 	1424743482.55 	1424743482.56 	0 	0.00507187843323
296 	1424743482.57 	1424743482.58 	6 	0.00698494911194
297 	1424743482.59 	1424743482.59 	5 	0.00427412986755
298 	1424743482.6 	1424743482.6 	2 	0.00415396690369
299 	1424743482.62 	1424743482.62 	7 	0.00443601608276
300 	1424743482.63 	1424743482.63 	3 	0.00422096252441
301 	1424743482.65 	1424743482.65 	2 	0.00433301925659
302 	1424743482.66 	1424743482.67 	9 	0.00517702102661
303 	1424743482.68 	1424743482.68 	5 	0.0044150352478
304 	1424743482.69 	1424743482.7 	1 	0.00639796257019
305 	1424743482.71 	1424743482.71 	9 	0.00386881828308
306 	1424743482.73 	1424743482.73 	1 	0.00515007972717
307 	1424743482.74 	1424743482.75 	4 	0.00387501716614
308 	1424743482.76 	1424743482.76 	5 	0.00394892692566
309 	1424743482.77 	1424743482.78 	4 	0.00432586669922
310 	1424743482.79 	1424743482.79 	5 	0.00394511222839
311 	1424743482.8 	1424743482.81 	9 	0.00434708595276
312 	1424743482.82 	1424743482.82 	7 	0.00488996505737
313 	1424743482.83 	1424743482.84 	2 	0.00673794746399
314 	1424743482.85 	1424743482.93 	6 	0.0770931243896
315 	1424743482.94 	1424743482.94 	0 	0.00392484664917
316 	1424743482.95 	1424743482.96 	1 	0.00502514839172
317 	1424743482.97 	1424743482.97 	7 	0.00380897521973
318 	1424743482.98 	1424743482.99 	4 	0.00411605834961
319 	1424743483.0 	1424743483.0 	8 	0.00384497642517
320 	1424743483.01 	1424743483.02 	6 	0.00420904159546
321 	1424743483.03 	1424743483.03 	9 	0.00530982017517
322 	1424743483.05 	1424743483.05 	1 	0.00412607192993
323 	1424743483.06 	1424743483.06 	5 	0.00397777557373
324 	1424743483.08 	1424743483.08 	4 	0.00394701957703
325 	1424743483.09 	1424743483.09 	9 	0.0039689540863
326 	1424743483.11 	1424743483.11 	7 	0.00421404838562
327 	1424743483.12 	1424743483.13 	2 	0.00448417663574
328 	1424743483.14 	1424743483.14 	0 	0.0042359828949
329 	1424743483.15 	1424743483.15 	4 	0.00435614585876
330 	1424743483.17 	1424743483.17 	9 	0.00418996810913
331 	1424743483.18 	1424743483.18 	1 	0.00428891181946
332 	1424743483.2 	1424743483.2 	0 	0.00405693054199
333 	1424743483.21 	1424743483.21 	6 	0.00402784347534
334 	1424743483.23 	1424743483.23 	7 	0.00416278839111
335 	1424743483.24 	1424743483.25 	6 	0.00447297096252
336 	1424743483.26 	1424743483.26 	8 	0.00429797172546
337 	1424743483.27 	1424743483.28 	1 	0.00446200370789
338 	1424743483.29 	1424743483.29 	6 	0.00421190261841
339 	1424743483.3 	1424743483.31 	8 	0.00413990020752
340 	1424743483.32 	1424743483.32 	0 	0.00409007072449
341 	1424743483.33 	1424743483.34 	5 	0.00447106361389
342 	1424743483.35 	1424743483.35 	3 	0.00486588478088
343 	1424743483.36 	1424743483.37 	0 	0.00459814071655
344 	1424743483.38 	1424743483.38 	6 	0.00408315658569
345 	1424743483.4 	1424743483.4 	5 	0.0040500164032
346 	1424743483.41 	1424743483.42 	4 	0.00466012954712
347 	1424743483.43 	1424743483.43 	3 	0.00533485412598
348 	1424743483.45 	1424743483.46 	0 	0.00832986831665
349 	1424743483.47 	1424743483.47 	8 	0.00380396842957
350 	1424743483.48 	1424743483.49 	9 	0.00405502319336
351 	1424743483.5 	1424743483.5 	4 	0.00415396690369
352 	1424743483.51 	1424743483.52 	9 	0.00395584106445
353 	1424743483.53 	1424743483.53 	2 	0.00423097610474
354 	1424743483.54 	1424743483.55 	9 	0.0039279460907
355 	1424743483.56 	1424743483.56 	2 	0.00431895256042
356 	1424743483.58 	1424743483.58 	1 	0.00407600402832
357 	1424743483.59 	1424743483.59 	7 	0.00396490097046
358 	1424743483.61 	1424743483.61 	5 	0.00402593612671
359 	1424743483.62 	1424743483.62 	4 	0.00420880317688
360 	1424743483.64 	1424743483.64 	6 	0.00415897369385
361 	1424743483.65 	1424743483.65 	0 	0.00415802001953
362 	1424743483.67 	1424743483.67 	8 	0.00409007072449
363 	1424743483.68 	1424743483.69 	4 	0.00501585006714
364 	1424743483.7 	1424743483.7 	3 	0.00420618057251
365 	1424743483.71 	1424743483.72 	7 	0.00458693504333
366 	1424743483.73 	1424743483.73 	6 	0.0040431022644
367 	1424743483.74 	1424743483.75 	2 	0.00419688224792
